X,Y,Frequency
0.0,0.0,13
0.001666944490748458,0.14621158514268146,13
0.003333888981496916,0.2899094449127581,13
0.005000833472245374,0.4286263630576873,13
0.006667777962993832,0.5599872806612707,13
0.00833472245374229,0.6817532384881212,13
0.010001666944490749,0.7918628000647776,13
0.011668611435239206,0.8884701887387079,13
0.013335555925987664,0.9699794327822775,13
0.015002500416736122,1.0350738865017675,13
0.01666944490748458,1.0827405809038764,13
0.01833638939823304,1.112288953179517,13
0.020003333888981498,1.1233636083154992,13
0.021670278379729953,1.1159508766128536,13
0.023337222870478413,1.0903790457313023,13
0.02500416736122687,1.047312262966918,13
0.026671111851975328,0.9877382206370376,13
0.028338056342723787,0.9129498525241517,13
0.030005000833472243,0.8245213801886545,13
0.0316719453242207,0.724279152546972,13
0.03333888981496916,0.6142678184907397,13
0.03500583430571762,0.4967124587103311,13
0.03667277879646608,0.3739773776831081,13
0.038339723287214536,0.248522318608708,13
0.040006667777962995,0.12285691177616159,13
0.04167361226871145,-0.0005058004523478266,13
0.04334055675945991,-0.11909590176400892,13
0.045007501250208366,-0.2305323416789885,13
0.046674445740956826,-0.332567030327572,13
0.048341390231705285,-0.423126472003142,13
0.05000833472245374,-0.5003501668317505,13
0.051675279213202197,-0.5626250697227599,13
0.053342223703950656,-0.608615468746639,13
0.055009168194699115,-0.6372877298746278,13
0.056676112685447574,-0.6479294500410688,13
0.05834305717619603,-0.6401626639938583,13
0.060010001666944486,-0.6139508604656954,13
0.061676946157692945,-0.569599677791262,13
0.0633438906484414,-0.5077512660919583,13
0.06501083513918986,-0.42937242038469065,13
0.06667777962993832,-0.33573670427440655,13
0.06834472412068678,-0.22840089512725253,13
0.07001166861143523,-0.1091761867333445,13
0.0716786131021837,0.01990531749044655,13
0.07334555759293215,0.15662820053295434,13
0.07501250208368061,0.2986347211379327,13
0.07667944657442907,0.44346843773963207,13
0.07834639106517753,0.5886196594868782,13
0.08001333555592599,0.7315718830374675,13
0.08168028004667444,0.8698483555576517,13
0.0833472245374229,1.0010579020253063,13
0.08501416902817135,1.122939168553493,13
0.08668111351891981,1.2334024627713194,13
0.08834805800966827,1.3305684167786096,13
0.09001500250041673,1.4128027570065806,13
0.09168194699116519,1.4787465373797146,13
0.09334889148191365,1.527341276150512,13
0.09501583597266211,1.5578485311142163,13
0.09668278046341057,1.5698635508588694,13
0.09834972495415902,1.5633227493614514,13
0.10001666944490747,1.5385048655736697,13
0.10168361393565593,1.4960257865348292,13
0.10335055842640439,1.4368271298403337,13
0.10501750291715285,1.362158796811686,13
0.10668444740790131,1.273555819319032,13
0.10835139189864977,1.1728099288345262,13
0.11001833638939823,1.0619363739887873,13
0.11168528088014669,0.9431366008552107,13
0.11335222537089515,0.818757486769755,13
0.11501916986164361,0.6912478822895525,13
0.11668611435239205,0.5631132657212582,13
0.11835305884314051,0.4368693495873288,13
0.12002000333388897,0.3149954977985309,13
0.12168694782463743,0.19988881580482898,13
0.12335389231538589,0.09381976353972277,13
0.12502083680613435,-0.0011098872146408922,13
0.1266877812968828,-0.08300597281055433,13
0.12835472578763127,-0.15021701463684878,13
0.13002167027837971,-0.20136480364807485,13
0.1316886147691282,-0.23536992638486898,13
0.13335555925987663,-0.25147175998499405,13
0.1350225037506251,-0.24924256606624828,13
0.13668944824137355,-0.2285954225951221,13
0.13835639273212202,-0.18978584691695688,13
0.14002333722287047,-0.1334070799030006,13
0.14169028171361894,-0.060379118505528795,13
0.1433572262043674,0.028068300267810375,13
0.14502417069511583,0.13041844898713317,13
0.1466911151858643,0.24489567193578976,13
0.14835805967661275,0.36949824030603917,13
0.15002500416736123,0.5020353922909636,13
0.15169194865810967,0.6401678724441591,13
0.15335889314885814,0.7814512199056481,13
0.1550258376396066,0.923381004209545,13
0.15669278213035506,1.0634391713384066,13
0.1583597266211035,1.1991406421378557,13
0.16002667111185198,1.3280793005338958,13
0.16169361560260043,1.4479725202901754,13
0.16336056009334887,1.5567034060949483,13
0.16502750458409735,1.6523599670761553,13
0.1666944490748458,1.7332704976253699,13
0.16836139356559426,1.798034510615795,13
0.1700283380563427,1.8455486504268057,13
0.17169528254709118,1.8750271061137345,13
0.17336222703783963,1.8860161468664587,13
0.1750291715285881,1.8784025106996463,13
0.17669611601933655,1.852415491097069,13
0.178363060510085,1.8086226829862877,13
0.18003000500083347,1.7479194667888227,13
0.1816969494915819,1.6715124252021258,13
0.18336389398233038,1.580896999677663,13
0.18503083847307883,1.4778298001854389,13
0.1866977829638273,1.364296080825426,13
0.18836472745457575,1.2424729833289185,13
0.19003167194532422,1.1146892288310775,13
0.19169861643607267,0.9833820040402617,13
0.19336556092682114,0.8510518398626211,13
0.19503250541756958,0.7202163177011655,13
0.19669944990831803,0.5933634603486635,13
0.1983663943990665,0.47290567023215957,13
0.20003333888981495,0.3611350676350725,13
0.20170028338056342,0.2601810556084654,13
0.20336722787131187,0.17197089706620838,13
0.20503417236206034,0.0981940338014986,13
0.20670111685280879,0.04027080789760462,13
0.20836806134355726,-0.0006738354848213612,13
0.2100350058343057,-0.0238311771692018,13
0.21170195032505418,-0.028723699316717033,13
0.21336889481580262,-0.015213929870624754,13
0.21503583930655107,0.016493007624265754,13
0.21670278379729954,0.06585318602591539,13
0.218369728288048,0.13199393823189487,13
0.22003667277879646,0.2137300061665296,13
0.2217036172695449,0.3095854761933138,13
0.22337056176029338,0.4178210949181492,13
0.22503750625104182,0.5364664597551427,13
0.2267044507417903,0.663356488392679,13
0.22837139523253874,0.7961714920928215,13
0.23003833972328722,0.9324801110484603,13
0.23170528421403566,1.0697843170445176,13
0.2333722287047841,1.2055656504027328,13
0.23503917319553258,1.3373318353422758,13
0.23670611768628103,1.462662910883873,13
0.2383730621770295,1.5792560233925088,13
0.24004000666777794,1.684968051627523,13
0.24170695115852642,1.7778552752902175,13
0.24337389564927486,1.8562093527852812,13
0.24504084014002334,1.91858894223068,13
0.24670778463077178,1.9638463803959874,13
0.24837472912152025,1.9911489257294221,13
0.2500416736122687,1.9999941722550192,13
0.25170861810301715,1.9902193490213904,13
0.2533755625937656,1.9620043329648493,13
0.2550425070845141,1.9158683194173798,13
0.25670945157526254,1.8526602118899205,13
0.258376396066011,1.7735429090206525,13
0.26004334055675943,1.679971779544338,13
0.26171028504750793,1.5736677237212504,13
0.2633772295382564,1.4565853198714884,13
0.2650441740290048,1.3308766456373566,13
0.26671111851975327,1.1988514436595514,13
0.2683780630105017,1.0629343690192825,13
0.2700450075012502,0.9256201098164933,13
0.27171195199199866,0.7894272116236069,13
0.2733788964827471,0.6568514605459075,13
0.27504584097349555,0.5303196877902779,13
0.27671278546424405,0.41214485084152874,13
0.2783797299549925,0.3044832227149008,13
0.28004667444574094,0.20929448173188858,13
0.2817136189364894,0.12830544057636084,13
0.2833805634272379,0.06297808602312138,13
0.28504750791798633,0.014482520938468357,13
0.2867144524087348,-0.01632469059123598,13
0.2883813968994832,-0.0289163741613242,13
0.29004834139023167,-0.023104498573683352,13
0.29171528588098017,0.0009563485572189334,13
0.2933822303717286,0.042771827451714484,13
0.29504917486247706,0.10151700200216063,13
0.2967161193532255,0.1760516153204562,13
0.298383063843974,0.2649412022375639,13
0.30005000833472245,0.36648364795189947,13
0.3017169528254709,0.4787407012126245,13
0.30338389731621934,0.5995738587130545,13
0.3050508418069678,0.7266839564561152,13
0.3067177862977163,0.857653735236031,13
0.30838473078846473,0.9899925923279892,13
0.3100516752792132,1.121182691009796,13
0.3117186197699616,1.2487255744054087,13
0.3133855642607101,1.3701884208048916,13
0.31505250875145857,1.4832490842518675,13
0.316719453242207,1.5857390866747487,13
0.31838639773295546,1.6756837657558323,13
0.32005334222370396,1.75133883538115,13
0.3217202867144524,1.8112226819186361,13
0.32338723120520085,1.854143798504089,13
0.3250541756959493,1.8792228495121783,13
0.32672112018669774,1.88590895678755,13
0.32838806467744625,1.8739899061690855,13
0.3300550091681947,1.8435960853786062,13
0.33172195365894314,1.7951980803807561,13
0.3333888981496916,1.7295979747054977,13
0.3350558426404401,1.6479145127858454,13
0.33672278713118853,1.55156240194342,13
0.338389731621937,1.4422261361508162,13
0.3400566761126854,1.321828826104384,13
0.34172362060343386,1.1924966125764294,13
0.34339056509418237,1.0565193217716105,13
0.3450575095849308,0.9163080909744514,13
0.34672445407567926,0.7743507488562652,13
0.3483913985664277,0.6331657763722149,13
0.3500583430571762,0.49525570045293493,13
0.35172528754792465,0.36306078319464363,13
0.3533922320386731,0.238913863781551,13
0.35505917652942154,0.1249971890369701,13
0.35672612102017,0.023302031688918534,13
0.3583930655109185,-0.06440815616598561,13
0.36006001000166693,-0.13663037235461017,13
0.3617269544924154,-0.19214987269308392,13
0.3633938989831638,-0.2300626430870032,13
0.3650608434739123,-0.24979211969823278,13
0.36672778796466077,-0.2510998476814976,13
0.3683947324554092,-0.23408988119393348,13
0.37006167694615766,-0.19920684323284443,13
0.37172862143690616,-0.1472276812165353,13
0.3733955659276546,-0.07924727091795414,13
0.37506251041840305,0.003341864769227043,13
0.3767294549091515,0.09887534681511434,13
0.37839639939989994,0.2054477633835649,13
0.38006334389064844,0.3209479549514501,13
0.3817302883813969,0.44309810807100114,13
0.38339723287214533,0.5694959341294075,13
0.3850641773628938,0.6976591523548554,13
0.3867311218536423,0.8250714536655578,13
0.3883980663443907,0.9492290945472165,13
0.39006501083513917,1.0676872584822088,13
0.3917319553258876,1.178105326756381,13
0.39339889981663606,1.278290220657486,13
0.39506584430738456,1.366237012778529,13
0.396732788798133,1.4401660556895715,13
0.39839973328888145,1.4985559407067033,13
0.4000666777796299,1.5401716766737232,13
0.4017336222703784,1.5640875671519185,13
0.40340056676112684,1.5697043625483817,13
0.4050675112518753,1.5567603696868701,13
0.40673445574262374,1.525336313175825,13
0.40840140023337224,1.4758538585854193,13
0.4100683447241207,1.40906782476843,13
0.4117352892148691,1.3260522294766441,13
0.41340223370561757,1.2281804265732306,13
0.415069178196366,1.117099702508837,13
0.4167361226871145,0.9947008022907838,13
0.41840306717786296,0.8630829490324121,13
0.4200700116686114,0.7245150045853468,13
0.42173695615935985,0.5813934901881133,13
0.42340390065010836,0.43619824418694503,13
0.4250708451408568,0.2914465376235673,13
0.42673778963160525,0.14964649703039407,13
0.4284047341223537,0.013250696597514322,13
0.43007167861310214,-0.11538922125944395,13
0.43173862310385064,-0.23406605693754345,13
0.4334055675945991,-0.3407578908828414,13
0.43507251208534753,-0.43366549111001146,13
0.436739456576096,-0.5112455985762531,13
0.4384064010668445,-0.5722394742834352,13
0.4400733455575929,-0.615696179690013,13
0.44174029004834137,-0.6409901595033134,13
0.4434072345390898,-0.6478328013883841,13
0.44507417902983826,-0.6362777586198223,13
0.44674112352058676,-0.6067199371539138,13
0.4484080680113352,-0.5598881658730327,13
0.45007501250208365,-0.49683168568176267,13
0.4517419569928321,-0.41890070755021735,13
0.4534089014835806,-0.32772139938672173,13
0.45507584597432904,-0.22516576474702066,13
0.4567427904650775,-0.11331697094169019,13
0.45840973495582593,0.005569231662556573,13
0.46007667944657443,0.12910628499839877,13
0.4617436239373229,0.25482102002599794,13
0.4634105684280713,0.38019945672899513,13
0.46507751291881977,0.5027333595961373,13
0.4667444574095682,0.6199666868220743,13
0.4684114019003167,0.7295410734281769,13
0.47007834639106516,0.8292395063865854,13
0.4717452908818136,0.9170273832979478,13
0.47341223537256205,0.9910901946046107,13
0.47507917986331055,1.0498671318212485,13
0.476746124354059,1.0920799996762016,13
0.47841306884480744,1.1167568969836168,13
0.4800800133355559,1.1232502278998104,13
0.48174695782630433,1.1112487101646011,13
0.48341390231705283,1.080783158046998,13
0.4850808468078013,1.0322259329478565,13
0.4867477912985497,0.9662840718267931,13
0.48841473578929817,0.8839862206471841,13
0.49008168028004667,0.7866636147051165,13
0.4917486247707951,0.6759254579032343,13
0.49341556926154356,0.5536291567085653,13
0.495082513752292,0.4218459597757338,13
0.4967494582430405,0.2828226392603109,13
0.49841640273378895,0.1389399231172294,13
0.5000833472245374,-0.007331552180068958,13
0.5017502917152858,-0.15347695316561563,13
0.5034172362060343,-0.2969837790123125,13
0.5050841806967827,-0.43538834798509973,13
0.5067511251875312,-0.566321380231818,13
0.5084180696782797,-0.6875518331547041,13
0.5100850141690282,-0.797028177951171,13
0.5117519586597766,-0.8929163532776172,13
0.5134189031505251,-0.9736336934980181,13
0.5150858476412735,-1.0378782034915994,13
0.516752792132022,-1.08465263813107,13
0.5184197366227704,-1.1132829407111104,13
0.5200866811135189,-1.1234306990252771,13
0.5217536256042673,-1.1150993885256475,13
0.5234205700950159,-1.088634287003661,13
0.5250875145857643,-1.0447160623737588,13
0.5267544590765127,-0.9843481522552827,13
0.5284214035672612,-0.9088381689649613,13
0.5300883480580096,-0.819773674124767,13
0.5317552925487581,-0.7189927713109935,13
0.5334222370395065,-0.6085500610910758,13
0.535089181530255,-0.49067858863898833,13
0.5367561260210034,-0.36774848829929907,13
0.538423070511752,-0.24222309061119318,13
0.5400900150025004,-0.1166133042747402,13
0.5417569594932489,0.006568882526841957,13
0.5434239039839973,0.12485692073360344,13
0.5450908484747458,0.23587537786018198,13
0.5467577929654942,0.33738392877828693,13
0.5484247374562427,0.42731884553753086,13
0.5500916819469911,0.5038312182260172,13
0.5517586264377395,0.5653211993819516,13
0.5534255709284881,0.6104676380736678,13
0.5550925154192365,0.6382525551047353,13
0.556759459909985,0.6479800062942686,13
0.5584264044007334,0.6392889846618344,13
0.5600933488914819,0.6121601226891524,13
0.5617602933822303,0.566916070594356,13
0.5634272378729788,0.5042155436145824,13
0.5650941823637272,0.425041148482401,13
0.5667611268544758,0.33068121443166487,13
0.5684280713452242,0.22270596504749124,13
0.5700950158359727,0.10293847202857076,13
0.5717619603267211,-0.02657907148036126,13
0.5734289048174696,-0.16362313369132536,13
0.575095849308218,-0.30582998373552994,13
0.5767627937989664,-0.450739426474405,13
0.5784297382897149,-0.5958403230090623,13
0.5800966827804633,-0.7386170542838784,13
0.5817636272712119,-0.8765960677225741,13
0.5834305717619603,-1.0073916452983243,13
0.5850975162527088,-1.1287500458511963,13
0.5867644607434572,-1.2385912045592127,13
0.5884314052342057,-1.3350472176880914,13
0.5900983497249541,-1.4164969002503836,13
0.5917652942157026,-1.4815957768972539,13
0.593432238706451,-1.5293009508990152,13
0.5950991831971995,-1.5588903908796905,13
0.596766127687948,-1.5699762783008564,13
0.5984330721786965,-1.562512168628345,13
0.6001000166694449,-1.53679383362715,13
0.6017669611601933,-1.4934537691951182,13
0.6034339056509418,-1.4334494703999892,13
0.6051008501416902,-1.3580456907563279,13
0.6067677946324387,-1.2687910141335288,13
0.6084347391231871,-1.167489172961894,13
0.6101016836139356,-1.0561656436524518,13
0.6117686281046841,-0.9370301375670912,13
0.6134355725954326,-0.8124356818509065,13
0.615102517086181,-0.6848350475619707,13
0.6167694615769295,-0.5567353316365786,13
0.6184364060676779,-0.4306515334011528,13
0.6201033505584264,-0.3090599849537371,13
0.6217702950491748,-0.19435249744264504,13
0.6234372395399232,-0.08879207201841233,13
0.6251041840306717,0.005529004727854336,13
0.6267711285214203,0.08672790516440743,13
0.6284380730121687,0.15316612767805038,13
0.6301050175029171,0.20347984098505356,13
0.6317719619936656,0.2366051440042659,13
0.633438906484414,0.25179777371857637,13
0.6351058509751625,0.24864689622114589,13
0.6367727954659109,0.2270827256659237,13
0.6384397399566594,0.18737783009050146,13
0.6401066844474079,0.1301420999383338,13
0.6417736289381564,0.056311472413885455,13
0.6434405734289048,-0.032869379613227334,13
0.6451075179196533,-0.13587007371991655,13
0.6467744624104017,-0.2509028328341901,13
0.6484414069011502,-0.3759555648116518,13
0.6501083513918986,-0.5088290943665008,13
0.651775295882647,-0.6471778581776431,13
0.6534422403733955,-0.7885533098852899,13
0.655109184864144,-0.930449231532172,13
0.6567761293548925,-1.0703481127142709,13
0.6584430738456409,-1.205767738942067,13
0.6601100183363894,-1.3343071268406559,13
0.6617769628271378,-1.4536909559076152,13
0.6634439073178863,-1.5618116743766073,13
0.6651108518086347,-1.6567684997883632,13
0.6667777962993832,-1.7369025923509527,13
0.6684447407901316,-1.8008277500148853,13
0.6701116852808802,-1.8474560570835759,13
0.6717786297716286,-1.8760180115923397,13
0.6734455742623771,-1.8860767588896565,13
0.6751125187531255,-1.8775361679513392,13
0.676779463243874,-1.8506426009323445,13
0.6784464077346224,-1.8059803432020147,13
0.6801133522253708,-1.744460778456068,13
0.6817802967161193,-1.66730550928023,13
0.6834472412068677,-1.5760237356130111,13
0.6851141856976163,-1.4723843098440392,13
0.6867811301883647,-1.3583829858226026,13
0.6884480746791132,-1.236205468013663,13
0.6901150191698616,-1.1081869447803505,13
0.6917819636606101,-0.9767688548519969,13
0.6934489081513585,-0.8444536872521057,13
0.695115852642107,-0.7137586513619814,13
0.6967827971328554,-0.5871690747103387,13
0.6984497416236038,-0.46709239111883016,13
0.7001166861143524,-0.35581357090584287,13
0.7017836306051008,-0.25545281815754484,13
0.7034505750958493,-0.16792631811078684,13
0.7051175195865977,-0.09491076123328213,13
0.7067844640773462,-0.03781230067809083,13
0.7084514085680946,0.002259482274559743,13
0.7101183530588431,0.024512122875289588,13
0.7117852975495915,0.028484947371341995,13
0.71345224204034,0.014057605648084115,13
0.7151191865310885,-0.01854769589761629,13
0.716786131021837,-0.06877030258424077,13
0.7184530755125854,-0.13572148472804813,13
0.7201200200033339,-0.21820088396708193,13
0.7217869644940823,-0.31471872819800417,13
0.7234539089848308,-0.42352340391701937,13
0.7251208534755792,-0.5426338755881466,13
0.7267877979663276,-0.6698763519411645,13
0.7284547424570762,-0.8029245204889874,13
0.7301216869478246,-0.9393426055044516,13
0.7317886314385731,-1.0766304524333687,13
0.7334555759293215,-1.2122698042097766,13
0.73512252042007,-1.3437709128771345,13
0.7367894649108184,-1.4687186237121743,13
0.7384564094015669,-1.5848170788125628,13
0.7401233538923153,-1.6899322126636374,13
0.7417902983830638,-1.7821312530712219,13
0.7434572428738123,-1.8597184962794495,13
0.7451241873645608,-1.9212666940592253,13
0.7467911318553092,-1.9656434717773645,13
0.7484580763460577,-1.9920322884354293,13
0.7501250208368061,-1.9999475506979567,13
0.7517919653275545,-1.9892436011422583,13
0.753458909818303,-1.9601174143530051,13
0.7551258543090514,-1.9131049509555986,13
0.7567927987997999,-1.8490712370769136,13
0.7584597432905484,-1.769194352867295,13
0.7601266877812969,-1.6749436264639308,13
0.7617936322720453,-1.5680524370355684,13
0.7634605767627938,-1.4504861303373322,13
0.7651275212535422,-1.3244056406737659,13
0.7667944657442907,-1.1921274926449827,13
0.7684614102350391,-1.056080923062494,13
0.7701283547257876,-0.918762916728467,13
0.771795299216536,-0.7826919883873364,13
0.7734622437072846,-0.6503615663678661,13
0.775129188198033,-0.5241938408064766,13
0.7767961326887814,-0.40649493074287424,13
0.7784630771795299,-0.2994121999664574,13
0.7801300216702783,-0.20489451171710682,13
0.7817969661610268,-0.12465615794451979,13
0.7834639106517752,-0.06014513081247819,13
0.7851308551425237,-0.01251632375720002,13
0.7867977996332721,0.01738984183938841,13
0.7884647441240207,0.02906296873141756,13
0.7901316886147691,0.022332126769886274,13
0.7917986331055176,-0.002630988050685179,13
