X,Y,Frequency
0.0,0.0,18
0.001666944490748458,1.5735626736687154,18
0.003333888981496916,3.099642842495474,18
0.005000833472245374,4.532409383027895,18
0.006667777962993832,5.829275537426891,18
0.00833472245374229,6.9523771723083945,18
0.010001666944490749,7.869884048570308,18
0.011668611435239206,8.557097754755143,18
0.013335555925987664,8.997297514633974,18
0.015002500416736122,9.182304011952656,18
0.01666944490748458,9.112741365131068,18
0.01833638939823304,8.797988078148961,18
0.020003333888981498,8.255818811954171,18
0.021670278379729953,7.5117497730536575,18
0.023337222870478413,6.598111014391346,18
0.02500416736122687,5.552878616160139,18
0.026671111851975328,4.418308218090276,18
0.028338056342723787,3.23941840866836,18
0.030005000833472243,2.062377791430065,18
0.0316719453242207,0.9328529556210325,18
0.03333888981496916,-0.10562404258125291,18
0.03500583430571762,-1.0132107802852217,18
0.03667277879646608,-1.755176992059102,18
0.038339723287214536,-2.3031440659175977,18
0.040006667777962995,-2.6360975523696637,18
0.04167361226871145,-2.7411367790812258,18
0.04334055675945991,-2.6139349875805875,18
0.045007501250208366,-2.2588936744335006,18
0.046674445740956826,-1.6889856636101177,18
0.048341390231705285,-0.9252924750346012,18
0.05000833472245374,0.0037476046469531177,18
0.051675279213202197,1.0633540834307387,18
0.053342223703950656,2.213645477222498,18
0.055009168194699115,3.41106315534705,18
0.056676112685447574,4.60992731927988,18
0.05834305717619603,5.764069925934558,18
0.060010001666944486,6.828486633122919,18
0.061676946157692945,7.760949163920474,18
0.0633438906484414,8.523520882773825,18
0.06501083513918986,9.08392179983047,18
0.06667777962993832,9.416694549854988,18
0.06834472412068678,9.50412993936665,18
0.07001166861143523,9.33691917057722,18
0.0716786131021837,8.914509531599458,18
0.07334555759293215,8.245150846191377,18
0.07501250208368061,7.345630930790719,18
0.07667944657442907,6.2407093235975495,18
0.07834639106517753,4.962269239582664,18
0.08001333555592599,3.548217687755038,18
0.08168028004667444,2.041172609073444,18
0.0833472245374229,0.48698343887141765,18
0.08501416902817135,-1.0668626008020063,18
0.08668111351891981,-2.572892125071257,18
0.08834805800966827,-3.985296720586741,18
0.09001500250041673,-5.261525201919307,18
0.09168194699116519,-6.363760687558327,18
0.09334889148191365,-7.260230273779068,18
0.09501583597266211,-7.926301015463852,18
0.09668278046341057,-8.345323493729264,18
0.09834972495415902,-8.50919319264813,18
0.10001666944490747,-8.418609904574621,18
0.10168361393565593,-8.083026081320176,18
0.10335055842640439,-7.520286067601653,18
0.10501750291715285,-6.755969103316285,18
0.10668444740790131,-5.822459474264134,18
0.10835139189864977,-4.757776855110542,18
0.11001833638939823,-3.604208381205433,18
0.11168528088014669,-2.4067910064123397,18
0.11335222537089515,-1.2116980035810552,18
0.11501916986164361,-0.06458685494821337,18
0.11668611435239205,0.9910328585607986,18
0.11835305884314051,1.9153536756555285,18
0.12002000333388897,2.6736914544652497,18
0.12168694782463743,3.237723148642902,18
0.12335389231538589,3.586497262053885,18
0.12502083680613435,3.707181147475288,18
0.1266877812968828,3.59551864787594,18
0.12835472578763127,3.255981851207241,18
0.13002167027837971,2.70161157715346,18
0.1316886147691282,1.9535522525313351,18
0.13335555925987663,1.040297669797007,18
0.1350225037506251,-0.0033256236791028293,18
0.13668944824137355,-1.137401252646069,18
0.13835639273212202,-2.3183481768537915,18
0.14002333722287047,-3.500477544009411,18
0.14169028171361894,-4.637626013096516,18
0.1433572262043674,-5.684807611432666,18
0.14502417069511583,-6.599825525268724,18
0.1466911151858643,-7.344786637038245,18
0.14835805967661275,-7.8874650624942415,18
0.15002500416736123,-8.202466286035149,18
0.15169194865810967,-8.272150553134226,18
0.15335889314885814,-8.08728270475896,18
0.1550258376396066,-7.647385327882551,18
0.15669278213035506,-6.960782605309589,18
0.1583597266211035,-6.044333204665056,18
0.16002667111185198,-4.922861562273085,18
0.16169361560260043,-3.628307602422708,18
0.16336056009334887,-2.1986249075538153,18
0.16502750458409735,-0.6764662667237582,18
0.1666944490748458,0.8922969374710502,18
0.16836139356559426,2.460169156476213,18
0.1700283380563427,3.9796825385079213,18
0.17169528254709118,5.405047812207968,18
0.17336222703783963,6.693745811690832,18
0.1750291715285881,7.808003366462085,18
0.17669611601933655,8.71610137650023,18
0.178363060510085,9.393468838235492,18
0.18003000500083347,9.82352417053922,18
0.1816969494915819,9.998234142434317,18
0.18336389398233038,9.918370708801248,18
0.18503083847307883,9.59345676236366,18
0.1866977829638273,9.04140283045604,18
0.18836472745457575,8.287847692989937,18
0.19003167194532422,7.365226385698723,18
0.19169861643607267,6.311598708516719,18
0.19336556092682114,5.169279840681415,18
0.19503250541756958,3.983321671290911,18
0.19669944990831803,2.7998987383075975,18
0.1983663943990665,1.6646560431413424,18
0.20003333888981495,0.6210773524216004,18
0.20170028338056342,-0.2910681342384067,18
0.20336722787131187,-1.037145655775451,18
0.20503417236206034,-1.5888909424921756,18
0.20670111685280879,-1.92541861354642,18
0.20836806134355726,-2.0339671575000406,18
0.2100350058343057,-1.9103540767054623,18
0.21170195032505418,-1.5591250550031819,18
0.21336889481580262,-0.9933918589185549,18
0.21503583930655107,-0.23436472073303882,18
0.21670278379729954,0.6894042137307657,18
0.218369728288048,1.7430395430039747,18
0.22003667277879646,2.8865872480182273,18
0.2217036172695449,4.076441169150802,18
0.22337056176029338,5.266900729869381,18
0.22503750625104182,6.411804656352638,18
0.2267044507417903,7.466182742365726,18
0.22837139523253874,8.387867062407864,18
0.23003833972328722,9.139005466654643,18
0.23170528421403566,9.68742364782045,18
0.2333722287047841,10.007787430301107,18
0.23503917319553258,10.082524005891946,18
0.23670611768628103,9.902469377356361,18
0.2383730621770295,9.46721896863596,18
0.24004000666777794,8.785168874912511,18
0.24170695115852642,7.873246184469286,18
0.24337389564927486,6.756337819024296,18
0.24504084014002334,5.4664380196018945,18
0.24670778463077178,4.041544572602916,18
0.24837472912152025,2.5243427723118597,18
0.2500416736122687,0.9607236362068411,18
0.25170861810301715,-0.6018112383748317,18
0.2533755625937656,-2.1158017714992368,18
0.2550425070845141,-3.535480029293927,18
0.25670945157526254,-4.81836101349951,18
0.258376396066011,-5.926717361449548,18
0.26004334055675943,-6.828885818926798,18
0.26171028504750793,-7.5003593083916416,18
0.2633772295382564,-7.924626011054074,18
0.2650441740290048,-8.093725843994145,18
0.26671111851975327,-8.008504725420018,18
0.2683780630105017,-7.6785577274067025,18
0.2700450075012502,-7.121863236693485,18
0.27171195199199866,-6.364121189786845,18
0.2733788964827471,-5.43781893084982,18
0.27504584097349555,-4.381057888215366,18
0.27671278546424405,-3.236182735981945,18
0.2783797299549925,-2.048261700882182,18
0.28004667444574094,-0.8634719436400773,18
0.2817136189364894,0.272552698342337,18
0.2833805634272379,1.3163529928684983,18
0.28504750791798633,2.22819675540991,18
0.2867144524087348,2.973497389029301,18
0.2883813968994832,3.5240482109977944,18
0.29004834139023167,3.859028790732482,18
0.29171528588098017,3.9657476104878953,18
0.2933822303717286,3.840094711853872,18
0.29504917486247706,3.4866882761152116,18
0.2967161193532255,2.9187099404145904,18
0.298383063843974,2.157434689764893,18
0.30005000833472245,1.2314719960909843,18
0.3017169528254709,0.17574511578576857,18
0.30338389731621934,-0.9697552561746243,18
0.3050508418069678,-2.161398773821164,18
0.3067177862977163,-3.3534740305858786,18
0.30838473078846473,-4.499822671102224,18
0.3100516752792132,-5.555491059736382,18
0.3117186197699616,-6.478340912225614,18
0.3133855642607101,-7.230561744501239,18
0.31505250875145857,-7.780031465843262,18
0.316719453242207,-8.101476818903475,18
0.31838639773295546,-8.177392456375438,18
0.32005334222370396,-7.998685992055931,18
0.3217202867144524,-7.565026069834708,18
0.32338723120520085,-6.884881013841632,18
0.3250541756959493,-5.975246583801739,18
0.32672112018669774,-4.86107237319276,18
0.32838806467744625,-3.574407063791834,18
0.3300550091681947,-2.1532927103238637,18
0.33172195365894314,-0.6404471202320317,18
0.3333888981496916,0.9182190989871412,18
0.3350558426404401,2.4751983949503917,18
0.33672278713118853,3.9830385981170755,18
0.338389731621937,5.395993291382744,18
0.3400566761126854,6.671611860209657,18
0.34172362060343386,7.772212999024115,18
0.34339056509418237,8.666189578613617,18
0.3450575095849308,9.329098753895389,18
0.34672445407567926,9.74449879998101,18
0.3483913985664277,9.90450313730876,18
0.3500583430571762,9.810032025796978,18
0.35172528754792465,9.47075311844165,18
0.3533922320386731,8.904713087006854,18
0.35505917652942154,8.13767347585264,18
0.35672612102017,7.202174416724654,18
0.3583930655109185,6.136359476242179,18
0.36006001000166693,4.982603367310128,18
0.3617269544924154,3.785991235983278,18
0.3633938989831638,2.5927034890915643,18
0.3650608434739123,1.4483634690313147,18
0.36672778796466077,0.3964065921707651,18
0.3683947324554092,-0.5234712000951478,18
0.37006167694615766,-1.276730646248303,18
0.37172862143690616,-1.8352217621174547,18
0.3733955659276546,-2.1781881168834074,18
0.37506251041840305,-2.293007172188803,18
0.3767294549091515,-2.175640429743839,18
0.37839639939989994,-1.8307774241056012,18
0.38006334389064844,-1.2716684543381036,18
0.3817302883813969,-0.5196519862560303,18
0.38339723287214533,0.3966065152690694,18
0.3850641773628938,1.4421373306415877,18
0.3867311218536423,2.5769145360433363,18
0.3883980663443907,3.757285097893766,18
0.39006501083513917,4.937528325990656,18
0.3917319553258876,6.071490373295825,18
0.39339889981663606,7.114235803879007,18
0.39506584430738456,8.023657638900637,18
0.396732788798133,8.761988755406005,18
0.39839973328888145,9.297161002232844,18
0.4000666777796299,9.60396378786404,18
0.4017336222703784,9.664960995590144,18
0.40340056676112684,9.471133640275548,18
0.4050675112518753,9.02222539506783,18
0.40673445574262374,8.326778641329199,18
0.40840140023337224,7.401859657946857,18
0.4100683447241207,6.272482578515668,18
0.4117352892148691,4.970752416450254,18
0.41340223370561757,3.53475741071604,18
0.415069178196366,2.00724982588742,18
0.4167361226871145,0.43416183493431515,18
0.41840306717786296,-1.136991044074123,18
0.4200700116686114,-2.6587625023303927,18
0.42173695615935985,-4.085425546989145,18
0.42340390065010836,-5.374561808202782,18
0.4250708451408568,-6.488533848553592,18
0.42673778963160525,-7.395788422029639,18
0.4284047341223537,-8.071944618905384,18
0.43007167861310214,-8.500628453999504,18
0.43173862310385064,-8.674024438722412,18
0.4334055675945991,-8.59312470377778,18
0.43507251208534753,-8.267666954043655,18
0.436739456576096,-7.71576356034687,18
0.4384064010668445,-6.96323503394059,18
0.4400733455575929,-6.04267160079414,18
0.44174029004834137,-4.992256223248793,18
0.4434072345390898,-3.8543908649290075,18
0.44507417902983826,-2.674174761655864,18
0.44674112352058676,-1.4977886996292344,18
0.4484080680113352,-0.37084262670863133,18
0.45007501250208365,0.6632547845579193,18
0.4517419569928321,1.5648467882189498,18
0.4534089014835806,2.2994444309897997,18
0.45507584597432904,2.8389574172141225,18
0.4567427904650775,3.162696320135586,18
0.45840973495582593,3.2581105972735585,18
0.46007667944657443,3.121236237697258,18
0.4617436239373229,2.756837166538221,18
0.4634105684280713,2.1782353922261453,18
0.46507751291881977,1.406835919793219,18
0.4667444574095682,0.47136327798392497,18
0.4684114019003167,-0.5931632647854799,18
0.47007834639106516,-1.7466794528097749,18
0.4717452908818136,-2.945506441246666,18
0.47341223537256205,-4.1439111085055185,18
0.47507917986331055,-5.295740940338325,18
0.476746124354059,-6.356075493476228,18
0.47841306884480744,-7.2828358523420995,18
0.4800800133355559,-8.0382949744475,18
0.48174695782630433,-8.59043532606265,18
0.48341390231705283,-8.914105615406797,18
0.4850808468078013,-8.991935544409689,18
0.4867477912985497,-8.814976069968681,18
0.48841473578929817,-8.383042387899797,18
0.49008168028004667,-7.704747382942061,18
0.4917486247707951,-6.79722425308158,18
0.49341556926154356,-5.685548027563629,18
0.495082513752292,-4.401876365070402,18
0.4967494582430405,-2.9843399636568773,18
0.49841640273378895,-1.4757217847423203,18
0.5000833472245374,0.07802822459539244,18
0.5017502917152858,1.6293903987107992,18
0.5034172362060343,3.1309281299055205,18
0.5050841806967827,4.536937707763781,18
0.5067511251875312,5.805036878767254,18
0.5084180696782797,6.89763595472354,18
0.5100850141690282,7.783239459695859,18
0.5117519586597766,8.43753230890091,18
0.5134189031505251,8.844212146687328,18
0.5150858476412735,8.995538463722507,18
0.516752792132022,8.892579147210336,18
0.5184197366227704,8.54514583678964,18
0.5200866811135189,7.971420482886408,18
0.5217536256042673,7.197286443062117,18
0.5234205700950159,6.255387917693595,18
0.5250875145857643,5.183951148273261,18
0.5267544590765127,4.0254092387792975,18
0.5284214035672612,2.8248794139611033,18
0.5300883480580096,1.6285467516314505,18
0.5317552925487581,0.4820117340772505,18
0.5334222370395065,-0.5713397607028567,18
0.535089181530255,-1.4918862092379768,18
0.5367561260210034,-2.245184966771024,18
0.538423070511752,-2.8032013971195773,18
0.5400900150025004,-3.1453090171878415,18
0.5417569594932489,-3.2590251872367424,18
0.5434239039839973,-3.140456257173132,18
0.5450908484747458,-2.7944363828998036,18
0.5467577929654942,-2.2343550900017477,18
0.5484247374562427,-1.4816796997408392,18
0.5500916819469911,-0.5651895533123343,18
0.5517586264377395,0.4800508089133624,18
0.5534255709284881,1.61394309810865,18
0.5550925154192365,2.7927869748370777,18
0.556759459909985,3.9708412163751174,18
0.5584264044007334,5.101958980605859,18
0.5600933488914819,6.141239160804787,18
0.5617602933822303,7.046635248640003,18
0.5634272378729788,7.7804646219741525,18
0.5650941823637272,8.310764696474413,18
0.5667611268544758,8.612447800813033,18
0.5684280713452242,8.66821376229639,18
0.5700950158359727,8.469187770558435,18
0.5717619603267211,8.015260817431708,18
0.5734289048174696,7.315120546466028,18
0.575095849308218,6.385971312474283,18
0.5767627937989664,5.252953261324737,18
0.5784297382897149,3.9482809028274426,18
0.5800966827804633,2.5101315871352248,18
0.5817636272712119,0.981323155450368,18
0.5834305717619603,-0.5921724949861712,18
0.5850975162527088,-2.1628273783167398,18
0.5867644607434572,-3.6832104151354863,18
0.5884314052342057,-5.107637000864852,18
0.5900983497249541,-6.39375681450848,18
0.5917652942157026,-7.504023722922935,18
0.593432238706451,-8.406995812967784,18
0.5950991831971995,-9.078419602216645,18
0.596766127687948,-9.502060125080455,18
0.5984330721786965,-9.670247594254963,18
0.6001000166694449,-9.584121378322816,18
0.6017669611601933,-9.253562759304753,18
0.6034339056509418,-8.696818958986395,18
0.6051008501416902,-7.9398318592627835,18
0.6067677946324387,-7.015295302002903,18
0.6084347391231871,-5.96147446737637,18
0.6101016836139356,-4.82082925554832,18
0.6117686281046841,-3.638490536565225,18
0.6134355725954326,-2.4606433412152846,18
0.615102517086181,-1.3328743571156436,18
0.6167694615769295,-0.2985423526480324,18
0.6184364060676779,0.6027706679451033,18
0.6201033505584264,1.336672642907657,18
0.6217702950491748,1.8751888442342235,18
0.6234372395399232,2.1977599524939713,18
0.6251041840306717,2.2919754197200497,18
0.6267711285214203,2.154016113158589,18
0.6284380730121687,1.788790542658481,18
0.6301050175029171,1.209759840780268,18
0.6317719619936656,0.4384577022084857,18
0.633438906484414,-0.4962776934045521,18
0.6351058509751625,-1.5593325368279145,18
0.6367727954659109,-2.710570535661506,18
0.6384397399566594,-3.9062659087917124,18
0.6401066844474079,-5.100665405233122,18
0.6417736289381564,-6.247623944228634,18
0.6434405734289048,-7.302255857545897,18
0.6451075179196533,-8.222543155229246,18
0.6467744624104017,-8.970843752513868,18
0.6484414069011502,-9.515246134459483,18
0.6501083513918986,-9.830722370738576,18
0.651775295882647,-9.900038533306867,18
0.6534422403733955,-9.714390161382394,18
0.655109184864144,-9.273740156817592,18
0.6567761293548925,-8.586847033475589,18
0.6584430738456409,-7.670982413105082,18
0.6601100183363894,-6.551347668761231,18
0.6617769628271378,-5.260210274938709,18
0.6634439073178863,-3.835790353591593,18
0.6651108518086347,-2.320936755224997,18
0.6667777962993832,-0.7616394706538362,18
0.6684447407901316,0.794569032404052,18
0.6701116852808802,2.3002670184702856,18
0.6717786297716286,3.709792777255015,18
0.6734455742623771,4.980831677233313,18
0.6751125187531255,6.075884861739971,18
0.676779463243874,6.963567662741091,18
0.6784464077346224,7.619691840295211,18
0.6801133522253708,8.028093414387323,18
0.6817802967161193,8.181176868905517,18
0.6834472412068677,8.080156555645276,18
0.6851141856976163,7.734986853302209,18
0.6867811301883647,7.163983662326777,18
0.6884480746791132,6.393150750549477,18
0.6901150191698616,5.455234919187657,18
0.6917819636606101,4.388543563745584,18
0.6934489081513585,3.2355666190674017,18
0.695115852642107,2.041451804222979,18
0.6967827971328554,0.8523872755675521,18
0.6984497416236038,-0.2860509287713451,18
0.7001166861143524,-1.3305280285922496,18
0.7017836306051008,-2.2414984377155793,18
0.7034505750958493,-2.9846175933521693,18
0.7051175195865977,-3.531967606086739,18
0.7067844640773462,-3.8630532628926537,18
0.7084514085680946,-3.9655330611704303,18
0.7101183530588431,-3.8356593492006485,18
0.7117852975495915,-3.4784119645710736,18
0.71345224204034,-2.907320631471204,18
0.7151191865310885,-2.1439824150350355,18
0.716786131021837,-1.217291344993078,18
0.7184530755125854,-0.16240752851325047,18
0.7201200200033339,0.9804976884882031,18
0.7217869644940823,2.1676760085566964,18
0.7234539089848308,3.3533650488935614,18
0.7251208534755792,4.49142435331664,18
0.7267877979663276,5.536986517684911,18
0.7284547424570762,6.448064854130725,18
0.7301216869478246,7.1870605530640805,18
0.7317886314385731,7.722115857191071,18
0.7334555759293215,8.028265212751464,18
0.73512252042007,8.088343516694911,18
0.7367894649108184,7.893619181092102,18
0.7384564094015669,7.444129482892825,18
0.7401233538923153,6.748706212812078,18
0.7417902983830638,5.824690607957892,18
0.7434572428738123,4.697347560050507,18
0.7451241873645608,3.398999744667919,18
0.7467911318553092,1.9679122393701471,18
0.7484580763460577,0.44696703818645767,18
0.7501250208368061,-1.117825686439275,18
0.7517919653275545,-2.6789269393442017,18
0.753458909818303,-4.18892232202769,18
0.7551258543090514,-5.602171046344049,18
0.7567927987997999,-6.876392229221316,18
0.7584597432905484,-7.974132377187533,18
0.7601266877812969,-8.864062178786595,18
0.7617936322720453,-9.522056770342575,18
0.7634605767627938,-9.932021311679799,18
0.7651275212535422,-10.086432731500187,18
0.7667944657442907,-9.986578557403778,18
0.7684614102350391,-9.64248447670036,18
0.7701283547257876,-9.072533300926661,18
0.771795299216536,-8.302788938610677,18
0.7734622437072846,-7.366049429943255,18
0.775129188198033,-6.300662693356035,18
0.7767961326887814,-5.149147037514349,18
0.7784630771795299,-3.956665405142354,18
0.7801300216702783,-2.7694074924450423,18
0.7817969661610268,-1.6329371462387634,18
0.7834639106517752,-0.5905636648011048,18
0.7851308551425237,0.31820522544153373,18
0.7867977996332721,1.059073846668091,18
0.7884647441240207,1.6041824751958593,18
0.7901316886147691,1.9331012700876449,18
0.7917986331055176,2.0335589764006996,18
0.793465577596266,1.9018805611277028,18
0.7951325220870145,1.5431182622074555,18
0.7967994665777629,0.970871403324677,18
0.7984664110685114,0.20680136426099427,18
0.8001333555592598,-0.7201410928519558,18
0.8018003000500082,-1.774748740019179,18
0.8034672445407568,-2.916814411351686,18
0.8051341890315052,-4.102566579582384,18
0.8068011335222537,-5.286233065842752,18
0.8084680780130021,-6.421677419526535,18
