X,Y,Frequency
0.0,4.0,19
0.001666944490748458,4.1114342287726915,19
0.003333888981496916,4.088947774759217,19
0.005000833472245374,3.9351782735980083,19
0.006667777962993832,3.657501208792905,19
0.00833472245374229,3.267701050715103,19
0.010001666944490749,2.781477036953894,19
0.011668611435239206,2.217804146408685,19
0.013335555925987664,1.598175323920698,19
0.015002500416736122,0.9457554609215244,19
0.01666944490748458,0.2844808608591243,19
0.01833638939823304,-0.36186020459200186,19
0.020003333888981498,-0.970529778350248,19
0.021670278379729953,-1.5206902294374696,19
0.023337222870478413,-1.9941692213754543,19
0.02500416736122687,-2.3761104832304176,19
0.026671111851975328,-2.6554859758420446,19
0.028338056342723787,-2.8254507278598866,19
0.030005000833472243,-2.8835280034792405,19
0.0316719453242207,-2.831619299104149,19
0.03333888981496916,-2.675840675752295,19
0.03500583430571762,-2.4261938382644272,19
0.03667277879646608,-2.0960868970434303,19
0.038339723287214536,-1.7017256351012542,19
0.040006667777962995,-1.2614011210380445,19
0.04167361226871145,-0.7947034611720765,19
0.04334055675945991,-0.3216942185793896,19
0.045007501250208366,0.13792856032120904,19
0.046674445740956826,0.5656387302271004,19
0.048341390231705285,0.9448311877862547,19
0.05000833472245374,1.261481749133499,19
0.051675279213202197,1.504691576279554,19
0.053342223703950656,1.667094834169693,19
0.055009168194699115,1.7451139676638692,19
0.056676112685447574,1.739053299842472,19
0.05834305717619603,1.6530283132857226,19
0.060010001666944486,1.494734714437449,19
0.061676946157692945,1.2750679255631183,19
0.0633438906484414,1.0076097353689342,19
0.06501083513918986,0.7080042233443398,19
0.06667777962993832,0.3932495384403143,19
0.06834472412068678,0.08093548135998885,19
0.07001166861143523,-0.21154102238274164,19
0.0716786131021837,-0.4677496484382144,19
0.07334555759293215,-0.6729572111250215,19
0.07501250208368061,-0.814784469963376,19
0.07667944657442907,-0.8837617533099777,19
0.07834639106517753,-0.8737601563778368,19
0.08001333555592599,-0.7822802268149709,19
0.08168028004667444,-0.6105859435366385,19
0.0833472245374229,-0.3636781839919685,19
0.08501416902817135,-0.05010850186743765,19
0.08668111351891981,0.3183593677578811,19
0.08834805800966827,0.727226563418973,19
0.09001500250041673,1.1598552600616512,19
0.09168194699116519,1.598159536029286,19
0.09334889148191365,2.0233625797708634,19
0.09501583597266211,2.416789063012404,19
0.09668278046341057,2.7606599657315054,19
0.09834972495415902,3.038856928497884,19
0.10001666944490747,3.2376243401360507,19
0.10168361393565593,3.3461797996164306,19
0.10335055842640439,3.357207224519575,19
0.10501750291715285,3.2672115696245623,19
0.10668444740790131,3.076719680539831,19
0.10835139189864977,2.7903180158073786,19
0.11001833638939823,2.416524577060164,19
0.11168528088014669,1.9674991245742794,19
0.11335222537089515,1.4586023530510226,19
0.11501916986164361,0.9078208928548984,19
0.11668611435239205,0.33508053415198247,19
0.11835305884314051,-0.23852527976452986,19
0.12002000333388897,-0.7915610684598223,19
0.12168694782463743,-1.3030960641672782,19
0.12335389231538589,-1.75353808612148,19
0.12502083680613435,-2.1254208626816506,19
0.1266877812968828,-2.4041128149674758,19
0.12835472578763127,-2.5784183010817134,19
0.13002167027837971,-2.6410464851439306,19
0.1316886147691282,-2.588928177573098,19
0.13335555925987663,-2.423366988345876,19
0.1350225037506251,-2.1500177061279064,19
0.13668944824137355,-1.7786917022118018,19
0.13835639273212202,-1.322996084620827,19
0.14002333722287047,-0.7998200175328583,19
0.14169028171361894,-0.2286878058303211,19
0.1433572262043674,0.36899622518343145,19
0.14502417069511583,0.9707815690826028,19
0.1466911151858643,1.5540513114343355,19
0.14835805967661275,2.0969130450441704,19
0.15002500416736123,2.579065507504043,19
0.15169194865810967,2.982606302290502,19
0.15335889314885814,3.292748229834139,19
0.1550258376396066,3.4984152239610165,19
0.15669278213035506,3.592693529455694,19
0.1583597266211035,3.573119388711524,19
0.16002667111185198,3.4417909099367057,19
0.16169361560260043,3.2052987150919194,19
0.16336056009334887,2.87447713992687,19
0.16502750458409735,2.4639848975397385,19
0.1666944490748458,1.9917309374953494,19
0.16836139356559426,1.4781674629258998,19
0.1700283380563427,0.9454774587584871,19
0.17169528254709118,0.416688418097823,19
0.17336222703783963,-0.08525294534521122,19
0.1750291715285881,-0.538408471160533,19
0.17669611601933655,-0.9227419810709674,19
0.178363060510085,-1.2209426817982236,19
0.18003000500083347,-1.419145426923467,19
0.1816969494915819,-1.5075186089163628,19
0.18336389398233038,-1.4806955116716973,19
0.18503083847307883,-1.3380309918049027,19
0.1866977829638273,-1.083672140118587,19
0.18836472745457575,-0.7264388393355556,19
0.19003167194532422,-0.27951759673551235,19
0.19169861643607267,0.24002060177465223,19
0.19336556092682114,0.8118606862564408,19
0.19503250541756958,1.4132180930858487,19
0.19669944990831803,2.019718086392673,19
0.1983663943990665,2.606346061530499,19
0.20003333888981495,3.1484320970759008,19
0.20170028338056342,3.6226314596705707,19
0.20336722787131187,4.007862693091587,19
0.20503417236206034,4.286166348197686,19
0.20670111685280879,4.4434502841942685,19
0.20836806134355726,4.470091687526677,19
0.2100350058343057,4.361371353387936,19
0.21170195032505418,4.117722150345962,19
0.21336889481580262,3.744780696209689,19
0.21503583930655107,3.2532388389063454,19
0.21670278379729954,2.6584992670996317,19
0.218369728288048,1.9801471715152714,19
0.22003667277879646,1.2412570438352626,19
0.2217036172695449,0.4675601559025302,19
0.22337056176029338,-0.31349624493911415,19
0.22503750625104182,-1.073762674234172,19
0.2267044507417903,-1.785435767543218,19
0.22837139523253874,-2.4221014445633915,19
0.23003833972328722,-2.9597331017361537,19
0.23170528421403566,-3.3776066207010964,19
0.2333722287047841,-3.659097021608832,19
0.23503917319553258,-3.792325993562878,19
0.23670611768628103,-3.7706351321392537,19
0.2383730621770295,-3.5928662922804997,19
0.24004000666777794,-3.2634377718028027,19
0.24170695115852642,-2.792212795641131,19
0.24337389564927486,-2.194164675433998,19
0.24504084014002334,-1.488850768629276,19
0.24670778463077178,-0.6997146571719195,19
0.24837472912152025,0.1467574735029582,19
0.2500416736122687,1.0219947022909193,19
0.25170861810301715,1.8963775657402135,19
0.2533755625937656,2.740313659631691,19
0.2550425070845141,3.525312223922085,19
0.25670945157526254,4.225017325052043,19
0.258376396066011,4.816160833561195,19
0.26004334055675943,5.279399462718779,19
0.26171028504750793,5.600004566922605,19
0.2633772295382564,5.768379025665029,19
0.2650441740290048,5.780382142581149,19
0.26671111851975327,5.637450814533732,19
0.2683780630105017,5.3465129902061355,19
0.2700450075012502,4.919697341899896,19
0.27171195199199866,4.373850813707445,19
0.2733788964827471,3.7298829862131986,19
0.27504584097349555,3.0119627328962966,19
0.27671278546424405,2.246598186086265,19
0.2783797299549925,1.4616353690521966,19
0.28004667444574094,0.6852138209197152,19
0.2817136189364894,-0.05528096879529598,19
0.2833805634272379,-0.734228543068542,19
0.28504750791798633,-1.3287096768107682,19
0.2867144524087348,-1.8193326276219173,19
0.2883813968994832,-2.1909186503129057,19
0.29004834139023167,-2.4330215343490087,19
0.29171528588098017,-2.540262421018669,19
0.2933822303717286,-2.5124683513638333,19
0.29504917486247706,-2.3546106059861187,19
0.2967161193532255,-2.0765466276472297,19
0.298383063843974,-1.6925768671757462,19
0.30005000833472245,-1.2208349705083001,19
0.3017169528254709,-0.6825360568967413,19
0.30338389731621934,-0.10111318238167388,19
0.3050508418069678,0.49872376523937545,19
0.3067177862977163,1.0919696902827605,19
0.30838473078846473,1.6543080311747005,19
0.3100516752792132,2.1630583679497817,19
0.3117186197699616,2.598051277992359,19
0.3133855642607101,2.9423968755462893,19
0.31505250875145857,3.1831178157806317,19
0.316719453242207,3.3116230069648878,19
0.31838639773295546,3.324004636546932,19
0.32005334222370396,3.221148126237822,19
0.3217202867144524,3.0086520107852186,19
0.32338723120520085,2.696562194686039,19
0.3250541756959493,2.298932288311353,19
0.32672112018669774,1.8332284768669598,19
0.32838806467744625,1.3196033698418896,19
0.3300550091681947,0.7800682833647127,19
0.33172195365894314,0.23759723116796527,19
0.3333888981496916,-0.2848016032527809,19
0.3350558426404401,-0.7650100624449727,19
0.33672278713118853,-1.1826834044302381,19
0.338389731621937,-1.520058221443198,19
0.3400566761126854,-1.7626533896385563,19
0.34172362060343386,-1.8998369427113435,19
0.34339056509418237,-1.9252372005418958,19
0.3450575095849308,-1.8369827500286224,19
0.34672445407567926,-1.6377627184011097,19
0.3483913985664277,-1.334705926896281,19
0.3500583430571762,-0.9390846811384134,19
0.35172528754792465,-0.46585586055019934,19
0.3533922320386731,0.06694165924999373,19
0.35505917652942154,0.638908629572135,19
0.35672612102017,1.2280968901304536,19
0.3583930655109185,1.8118780551818863,19
0.36006001000166693,2.3678347132140507,19
0.3617269544924154,2.8746387183229656,19
0.3633938989831638,3.312881849675844,19
0.3650608434739123,3.6658261890596044,19
0.36672778796466077,3.920044927359317,19
0.3683947324554092,4.065928819983636,19
0.37006167694615766,4.098038984715432,19
0.37172862143690616,4.015292951497485,19
0.3733955659276546,3.820977581781958,19
0.37506251041840305,3.522589406081345,19
0.3767294549091515,3.131509805102252,19
0.37839639939989994,2.662529008261483,19
0.38006334389064844,2.1332388434130074,19
0.3817302883813969,1.563319307505793,19
0.38339723287214533,0.9737481375452575,19
0.3850641773628938,0.38596548415301424,19
0.3867311218536423,-0.17897258637020097,19
0.3883980663443907,-0.7012177715803047,19
0.39006501083513917,-1.162897505497094,19
0.3917319553258876,-1.5487967535754055,19
0.39339889981663606,-1.8469267921171175,19
0.39506584430738456,-2.04895883205499,19
0.396732788798133,-2.150505917768123,19
0.39839973328888145,-2.1512427484718666,19
0.4000666777796299,-2.054859680654704,19
0.4017336222703784,-1.8688539076688535,19
0.40340056676112684,-1.6041674050711612,19
0.4050675112518753,-1.274687412211299,19
0.40673445574262374,-0.8966307434592534,19
0.40840140023337224,-0.487837864909292,19
0.4100683447241207,-0.06700624876463235,19
0.4117352892148691,0.34710511451395387,19
0.41340223370561757,0.7364671003370185,19
0.415069178196366,1.0845350614964944,19
0.4167361226871145,1.3769356048951935,19
0.41840306717786296,1.602057340874302,19
0.4200700116686114,1.751521427105938,19
0.42173695615935985,1.8205127247707926,19
0.42340390065010836,1.8079581582645776,19
0.4250708451408568,1.7165451862475671,19
0.42673778963160525,1.552579894870455,19
0.4284047341223537,1.3256908453212504,19
0.43007167861310214,1.0483911785173954,19
0.43173862310385064,0.7355173409402564,19
0.4334055675945991,0.40356790886893096,19
0.43507251208534753,0.0699701452856264,19
0.436739456576096,-0.24769504536724618,19
0.4384064010668445,-0.5324773191198594,19
0.4400733455575929,-0.7688173501266693,19
0.44174029004834137,-0.943251533035594,19
0.4434072345390898,-1.0450311209177459,19
0.44507417902983826,-1.0666294166855699,19
0.44674112352058676,-1.004115151979375,19
0.4484080680113352,-0.8573756120302916,19
0.45007501250208365,-0.6301791804685175,19
0.4517419569928321,-0.3300735385269671,19
0.4534089014835806,0.0318775058663876,19
0.45507584597432904,0.4415089344323815,19
0.4567427904650775,0.8821052677894647,19
0.45840973495582593,1.3350655642326008,19
0.46007667944657443,1.7806562624531068,19
0.4617436239373229,2.198821687222795,19
0.4634105684280713,2.5700194652566424,19
0.46507751291881977,2.876046839140594,19
0.4667444574095682,3.1008239769435835,19
0.4684114019003167,3.23110185574286,19
0.47007834639106516,3.2570650956238367,19
0.4717452908818136,3.1728041305892676,19
0.47341223537256205,2.976636169102985,19
0.47507917986331055,2.67126032168745,19
0.476746124354059,2.2637388229412223,19
0.47841306884480744,1.7653031914599167,19
0.4800800133355559,1.1909911786564569,19
0.48174695782630433,0.5591271768159924,19
0.48341390231705283,-0.10933488534587332,19
0.4850808468078013,-0.7915814908330914,19
0.4867477912985497,-1.4637929628566713,19
0.48841473578929817,-2.102047453510407,19
0.49008168028004667,-2.683240300958283,19
0.4917486247707951,-3.1859826741966493,19
0.49341556926154356,-3.591443960019513,19
0.495082513752292,-3.8841042934125682,19
0.4967494582430405,-4.052386920451459,19
0.49841640273378895,-4.089144588655962,19
0.5000833472245374,-3.9919797116961435,19
0.5017502917152858,-3.7633844392828832,19
0.5034172362060343,-3.4106937311369685,19
0.5050841806967827,-2.9458518141395045,19
0.5067511251875312,-2.384999708688863,19
0.5084180696782797,-1.7478985562688185,19
0.5100850141690282,-1.0572099867255846,19
0.5117519586597766,-0.3376604723528611,19
0.5134189031505251,0.3848787014177199,19
0.5150858476412735,1.0843607506715365,19
0.516752792132022,1.7355447826506716,19
0.5184197366227704,2.3149513823984114,19
0.5200866811135189,2.801755327819642,19
0.5217536256042673,3.1785806254233604,19
0.5234205700950159,3.4321666887336915,19
0.5250875145857643,3.5538793433585223,19
0.5267544590765127,3.5400462516284197,19
0.5284214035672612,3.3921030785432604,19
0.5300883480580096,3.116544009605242,19
0.5317552925487581,2.724677797314463,19
0.5334222370395065,2.2321980622438735,19
0.535089181530255,1.6585838120282757,19
0.5367561260210034,1.0263527839203126,19
0.538423070511752,0.3601960028268526,19
0.5400900150025004,-0.31397335133519166,19
0.5417569594932489,-0.9700202421003377,19
0.5434239039839973,-1.582598693223515,19
0.5450908484747458,-2.1281342448512945,19
0.5467577929654942,-2.5857398549654613,19
0.5484247374562427,-2.938029618768171,19
0.5500916819469911,-3.171798535493347,19
0.5517586264377395,-3.2785416525663686,19
0.5534255709284881,-3.2547920659058907,19
0.5550925154192365,-3.1022642160210285,19
0.556759459909985,-2.827796423829723,19
0.5584264044007334,-2.4430943675349743,19
0.5600933488914819,-1.9642849117416874,19
0.5617602933822303,-1.4112970628575807,19
0.5634272378729788,-0.8070935542240191,19
0.5650941823637272,-0.17678239802785056,19
0.5667611268544758,0.4533575490980617,19
0.5684280713452242,1.0568995584133214,19
0.5700950158359727,1.6083011319808187,19
0.5717619603267211,2.0839053905023506,19
0.5734289048174696,2.462873002156182,19
0.575095849308218,2.7280085097647446,19
0.5767627937989664,2.8664489156776725,19
0.5784297382897149,2.8701876334217555,19
0.5800966827804633,2.7364132107049364,19
0.5817636272712119,2.467649327271942,19
0.5834305717619603,2.071690199556135,19
0.5850975162527088,1.5613333874929025,19
0.5867644607434572,0.9539197934078643,19
0.5884314052342057,0.2706980672338928,19
0.5900983497249541,-0.46396260066079786,19
0.5917652942157026,-1.2234814697627405,19
0.593432238706451,-1.9800624907813216,19
0.5950991831971995,-2.7057398903400522,19
0.596766127687948,-3.3734332730249763,19
0.5984330721786965,-3.9579720281024615,19
0.6001000166694449,-4.437049987662016,19
0.6017669611601933,-4.792073943355482,19
0.6034339056509418,-5.00887368701519,19
0.6051008501416902,-5.07824653891433,19
0.6067677946324387,-4.996315661052659,19
0.6084347391231871,-4.764688576474382,19
0.6101016836139356,-4.390409953761516,19
0.6117686281046841,-3.885710573373432,19
0.6134355725954326,-3.2675621661451384,19
0.615102517086181,-2.557055204367405,19
0.6167694615769295,-1.7786234480709133,19
0.6184364060676779,-0.9591448453255634,19
0.6201033505584264,-0.1269530337239282,19
0.6217702950491748,0.6892029862383523,19
0.6234372395399232,1.461211561792504,19
0.6251041840306717,2.1626236841466637,19
0.6267711285214203,2.7696122466741313,19
0.6284380730121687,3.261829295721366,19
0.6301050175029171,3.6231293321442526,19
0.6317719619936656,3.8421319626102837,19
0.633438906484414,3.9126034479252403,19
0.6351058509751625,3.833643706418149,19
0.6367727954659109,3.6096728301127787,19
0.6384397399566594,3.250218868207934,19
0.6401066844474079,2.769516227696121,19
0.6417736289381564,2.185931241066169,19
0.6434405734289048,1.5212379785713277,19
0.6451075179196533,0.799772987198384,19
0.6467744624104017,0.04750210671451838,19
0.6484414069011502,-0.7089643235368378,19
0.6501083513918986,-1.4433698121656962,19
0.651775295882647,-2.1307853046866487,19
0.6534422403733955,-2.748520929451641,19
0.655109184864144,-3.2769414761766393,19
0.6567761293548925,-3.700155163794488,19
0.6584430738456409,-4.006550394854845,19
0.6601100183363894,-4.189161287190265,19
0.6617769628271378,-4.245849577288158,19
0.6634439073178863,-4.179297734172728,19
0.6651108518086347,-3.996815521914507,19
0.6667777962993832,-3.709969512598084,19
0.6684447407901316,-3.334051895713357,19
0.6701116852808802,-2.8874110882222683,19
0.6717786297716286,-2.390671883828095,19
0.6734455742623771,-1.8658769894538474,19
0.6751125187531255,-1.3355846259768565,19
0.676779463243874,-0.8219583143314357,19
0.6784464077346224,-0.34588497769234605,19
0.6801133522253708,0.07384392711581134,19
0.6817802967161193,0.42125631696865096,19
0.6834472412068677,0.6838005240496781,19
0.6851141856976163,0.8528006751595516,19
0.6867811301883647,0.9237495925748065,19
0.6884480746791132,0.8964290115385682,19
0.6901150191698616,0.7748538859322491,19
0.6917819636606101,0.5670446164076874,19
0.6934489081513585,0.2846379030171069,19
0.695115852642107,-0.05764667518529443,19
0.6967827971328554,-0.44266157066598316,19
0.6984497416236038,-0.851580147787528,19
0.7001166861143524,-1.2647084031296436,19
0.7017836306051008,-1.6623260530086652,19
0.7034505750958493,-2.0255225274765336,19
0.7051175195865977,-2.336993810718981,19
0.7067844640773462,-2.581767835244199,19
0.7084514085680946,-2.7478291953040213,19
0.7101183530588431,-2.8266181660747653,19
0.7117852975495915,-2.8133842256433064,19
0.71345224204034,-2.707380264184333,19
0.7151191865310885,-2.511890185841672,19
0.716786131021837,-2.2340894000614,19
0.7184530755125854,-1.8847444867226435,19
0.7201200200033339,-1.4777648305282716,19
0.7217869644940823,-1.0296249936972768,19
0.7234539089848308,-0.5586817932088057,19
0.7251208534755792,-0.08441426254878448,19
0.7267877979663276,0.37338225908273537,19
0.7284547424570762,0.7954148754806362,19
0.7301216869478246,1.1636912344588881,19
0.7317886314385731,1.4622644006722876,19
0.7334555759293215,1.6778941417137128,19
0.73512252042007,1.800597715886017,19
0.7367894649108184,1.8240677807980674,19
0.7384564094015669,1.7459404720574256,19
0.7401233538923153,1.5679028104477566,19
0.7417902983830638,1.2956351366641266,19
0.7434572428738123,0.9385909804259343,19
0.7451241873645608,0.5096233746254286,19
0.7467911318553092,0.024472858549278387,19
0.7484580763460577,-0.4988619743049224,19
0.7501250208368061,-1.0408457649452973,19
0.7517919653275545,-1.5811901720227606,19
0.753458909818303,-2.0996682741559742,19
0.7551258543090514,-2.5769264752578387,19
0.7567927987997999,-2.995260897873799,19
0.7584597432905484,-3.33932668881238,19
0.7601266877812969,-3.5967513807192733,19
0.7617936322720453,-3.758627343170515,19
0.7634605767627938,-3.8198632605984733,19
0.7651275212535422,-3.7793802942821224,19
0.7667944657442907,-3.6401448910960137,19
0.7684614102350391,-3.4090368383610317,19
0.7701283547257876,-3.0965578640662175,19
0.771795299216536,-2.716392574243431,19
0.7734622437072846,-2.28483954176384,19
0.775129188198033,-1.820135669307684,19
0.7767961326887814,-1.3417013282108623,19
0.7784630771795299,-0.8693370459243257,19
0.7801300216702783,-0.4224045438868813,19
0.7817969661610268,-0.019025630457917497,19
0.7834639106517752,0.32466820084122716,19
0.7851308551425237,0.5952046056088327,19
0.7867977996332721,0.782330037702045,19
0.7884647441240207,0.8794369685145038,19
0.7901316886147691,0.883840759414062,19
0.7917986331055176,0.7968943404568134,19
0.793465577596266,0.6239354181310466,19
0.7951325220870145,0.37406774057047976,19
0.7967994665777629,0.059784716722015574,19
0.7984664110685114,-0.303549856565162,19
0.8001333555592598,-0.6983433198906789,19
