X,Y,Frequency
0.0,0.0,6
0.001666944490748458,0.07327450222021022,6
0.003333888981496916,0.14629992616015025,6
0.005000833472245374,0.21882817245561623,6
0.006667777962993832,0.2906130957103984,6
0.00833472245374229,0.36141147183518724,6
0.010001666944490749,0.4309839538550242,6
0.011668611435239206,0.4990960124123873,6
0.013335555925987664,0.565518857253423,6
0.015002500416736122,0.6300303360599083,6
0.01666944490748458,0.6924158070789661,6
0.01833638939823304,0.752468982105995,6
0.020003333888981498,0.8099927364933208,6
0.021670278379729953,0.8647998829872489,6
0.023337222870478413,0.9167139063390013,6
0.02500416736122687,0.9655696557898772,6
0.026671111851975328,1.0112139926972823,6
0.028338056342723787,1.0535063907453734,6
0.030005000833472243,1.092319486371245,6
0.0316719453242207,1.127539577234135,6
0.03333888981496916,1.1590670667602359,6
0.03500583430571762,1.1868168530085914,6
0.03667277879646608,1.210718660323362,6
0.038339723287214536,1.230717312463619,6
0.040006667777962995,1.2467729461328612,6
0.04167361226871145,1.258861164065741,6
0.04334055675945991,1.2669731270681068,6
0.045007501250208366,1.2711155846474695,6
0.046674445740956826,1.2713108441134333,6
0.048341390231705285,1.2675966782705497,6
0.05000833472245374,1.260026172068473,6
0.051675279213202197,1.2486675088152805,6
0.053342223703950656,1.2336036967984296,6
0.055009168194699115,1.2149322373930616,6
0.056676112685447574,1.1927647359683842,6
0.05834305717619603,1.1672264571286695,6
0.060010001666944486,1.1384558260451731,6
0.061676946157692945,1.1066038778480984,6
0.0633438906484414,1.0718336572527785,6
0.06501083513918986,1.0343195707907256,6
0.06667777962993832,0.9942466942032844,6
0.06834472412068678,0.9518100377326613,6
0.07001166861143523,0.9072137722112898,6
0.0716786131021837,0.8606704190052762,6
0.07334555759293215,0.812400007010344,6
0.07501250208368061,0.7626292000287848,6
0.07667944657442907,0.7115903979728403,6
0.07834639106517753,0.6595208154432742,6
0.08001333555592599,0.6066615413212059,6
0.08168028004667444,0.5532565830862349,6
0.0833472245374229,0.49955189963417795,6
0.08501416902817135,0.44579442641315165,6
0.08668111351891981,0.3922310967270344,6
0.08834805800966827,0.3391078630704931,6
0.09001500250041673,0.2866687223596228,6
0.09168194699116519,0.23515474890685895,6
0.09334889148191365,0.18480313895826245,6
0.09501583597266211,0.13584627056560916,6
0.09668278046341057,0.08851078250519345,6
0.09834972495415902,0.043016675880038435,6
0.10001666944490747,-0.00042355804733362756,6
0.10168361393565593,-0.04160578034797602,6
0.10335055842640439,-0.08033501391900544,6
0.10501750291715285,-0.11642621677934295,6
0.10668444740790131,-0.14970501611545772,6
0.10835139189864977,-0.18000840017881659,6
0.11001833638939823,-0.20718536530314746,6
0.11168528088014669,-0.23109751548679347,6
0.11335222537089515,-0.2516196121727271,6
0.11501916986164361,-0.2686400720553834,6
0.11668611435239205,-0.2820614109486781,6
0.11835305884314051,-0.2918006319625148,6
0.12002000333388897,-0.297789556454945,6
0.12168694782463743,-0.29997509645307285,6
0.12335389231538589,-0.2983194674668669,6
0.12502083680613435,-0.2928003408553629,6
0.1266877812968828,-0.2834109351433899,6
0.12835472578763127,-0.2701600459279637,6
0.13002167027837971,-0.25307201425594195,6
0.1316886147691282,-0.23218663359743485,6
0.13335555925987663,-0.20755899578189785,6
0.1350225037506251,-0.17925927650478957,6
0.13668944824137355,-0.14737246125126147,6
0.13835639273212202,-0.11199801271855814,6
0.14002333722287047,-0.07324948104979223,6
0.14169028171361894,-0.0312540584174974,6
0.1433572262043674,0.013847920284893678,6
0.14502417069511583,0.061903528672774155,6
0.1466911151858643,0.11274784984540753,6
0.14835805967661275,0.16620462473403297,6
0.15002500416736123,0.2220869452637536,6
0.15169194865810967,0.28019798959297504,6
0.15335889314885814,0.3403317965280919,6
0.1550258376396066,0.4022740760563973,6
0.15669278213035506,0.46580305279766065,6
0.1583597266211035,0.5306903390447935,6
0.16002667111185198,0.5967018339472647,6
0.16169361560260043,0.6635986452876582,6
0.16336056009334887,0.7311380302126251,6
0.16502750458409735,0.7990743512045877,6
0.1666944490748458,0.8671600435204329,6
0.16836139356559426,0.9351465902781367,6
0.1700283380563427,1.0027855013420437,6
0.17169528254709118,1.069829292142573,6
0.17336222703783963,1.136032458566321,6
0.1750291715285881,1.2011524440680956,6
0.17669611601933655,1.2649505951870603,6
0.178363060510085,1.3271931016950038,6
0.18003000500083347,1.3876519176653592,6
0.1816969494915819,1.4461056598269502,6
0.18336389398233038,1.5023404796561097,6
0.18503083847307883,1.556150905764467,6
0.1866977829638273,1.607340653256998,6
0.18836472745457575,1.6557233968652838,6
0.19003167194532422,1.701123504803979,6
0.19169861643607267,1.7433767304534884,6
0.19336556092682114,1.7823308591384006,6
0.19503250541756958,1.8178463074484394,6
0.19669944990831803,1.8497966727361046,6
0.1983663943990665,1.8780692306218087,6
0.20003333888981495,1.9025653785426089,6
0.20170028338056342,1.9232010235936294,6
0.20336722787131187,1.939906913131177,6
0.20503417236206034,1.9526289068325413,6
0.20670111685280879,1.9613281891385579,6
0.20836806134355726,1.9659814212403979,6
0.2100350058343057,1.966580832010688,6
0.21170195032505418,1.9631342475201157,6
0.21336889481580262,1.95566505902312,6
0.21503583930655107,1.9442121295391726,6
0.21670278379729954,1.9288296393985798,6
0.218369728288048,1.9095868713626745,6
0.22003667277879646,1.886567936166824,6
0.2217036172695449,1.8598714395698739,6
0.22337056176029338,1.8296100922245642,6
0.22503750625104182,1.7959102639091986,6
0.2267044507417903,1.7589114838804651,6
0.22837139523253874,1.7187658893200504,6
0.23003833972328722,1.6756376240525626,6
0.23170528421403566,1.6297021899086226,6
0.2333722287047841,1.581145753293911,6
0.23503917319553258,1.5301644097018128,6
0.23670611768628103,1.476963409073305,6
0.2383730621770295,1.421756345062311,6
0.24004000666777794,1.364764311407252,6
0.24170695115852642,1.3062150287393408,6
0.24337389564927486,1.2463419452749083,6
0.24504084014002334,1.1853833149421238,6
0.24670778463077178,1.123581256581587,6
0.24837472912152025,1.0611807979349133,6
0.2500416736122687,0.998428908195579,6
0.25170861810301715,0.9355735229413515,6
0.2533755625937656,0.8728625652977523,6
0.2550425070845141,0.8105429671968843,6
0.25670945157526254,0.7488596945955174,6
0.258376396066011,0.6880547805007522,6
0.26004334055675943,0.6283663696207094,6
0.26171028504750793,0.5700277784118352,6
0.2633772295382564,0.5132665742335678,6
0.2650441740290048,0.4583036772457316,6
0.26671111851975327,0.4053524885941857,6
0.2683780630105017,0.354618048326519,6
0.2700450075012502,0.3062962263621345,6
0.27171195199199866,0.2605729497106648,6
0.2733788964827471,0.2176234689894344,6
0.27504584097349555,0.17761166713565735,6
0.27671278546424405,0.14068941304237648,6
0.2783797299549925,0.10699596266983513,6
0.28004667444574094,0.07665740999654502,6
0.2817136189364894,0.04978618997753004,6
0.2833805634272379,0.026480635471923364,6
0.28504750791798633,0.00682458988900525,6
0.2867144524087348,-0.009112922918185329,6
0.2883813968994832,-0.021277970208554153,6
0.29004834139023167,-0.029631922286004087,6
0.29171528588098017,-0.034151603973272215,6
0.2933822303717286,-0.03482938502865729,6
0.29504917486247706,-0.03167320914881233,6
0.2967161193532255,-0.024706561443218145,6
0.298383063843974,-0.013968374508878556,6
0.30005000833472245,0.000487126523831094,6
0.3017169528254709,0.018590639362284334,6
0.30338389731621934,0.040258059489299725,6
0.3050508418069678,0.06539081358184162,6
0.3067177862977163,0.09387625009430012,6
0.30838473078846473,0.12558808546419997,6
0.3100516752792132,0.16038690417865598,6
0.3117186197699616,0.1981207107271734,6
0.3133855642607101,0.238625531261636,6
0.31505250875145857,0.28172606258798905,6
0.316719453242207,0.3272363659273658,6
0.31838639773295546,0.3749606027075407,6
0.32005334222370396,0.42469380947977353,6
0.3217202867144524,0.4762227089015367,6
0.32338723120520085,0.52932655358334,6
0.3250541756959493,0.5837779994680027,6
0.32672112018669774,0.6393440052942162,6
0.32838806467744625,0.6957867545932465,6
0.3300550091681947,0.7528645965785892,6
0.33172195365894314,0.8103330022139382,6
0.3333888981496916,0.8679455316847293,6
0.3350558426404401,0.9254548094536715,6
0.33672278713118853,0.9826135030505712,6
0.338389731621937,1.0391753017321688,6
0.3400566761126854,1.0948958911480453,6
0.34172362060343386,1.1495339201645842,6
0.34339056509418237,1.202851956029801,6
0.3450575095849308,1.2546174241079355,6
0.34672445407567926,1.3046035284736495,6
0.3483913985664277,1.3525901497311108,6
0.3500583430571762,1.3983647165133124,6
0.35172528754792465,1.4417230472207216,6
0.3533922320386731,1.4824701586759932,6
0.35505917652942154,1.5204210385019286,6
0.35672612102017,1.5554013781732285,6
0.3583930655109185,1.5872482638477075,6
0.36006001000166693,1.6158108222494123,6
0.3617269544924154,1.6409508190534619,6
0.3633938989831638,1.6625432074099904,6
0.3650608434739123,1.6804766244413676,6
0.36672778796466077,1.69465383375231,6
0.3683947324554092,1.7049921122055844,6
0.37006167694615766,1.7114235794360562,6
0.37172862143690616,1.713895468801883,6
0.3733955659276546,1.712370338702855,6
0.37506251041840305,1.7068262234312939,6
0.3767294549091515,1.697256722959641,6
0.37839639939989994,1.6836710313099272,6
0.38006334389064844,1.66609390339279,6
0.3817302883813969,1.644565560446603,6
0.38339723287214533,1.6191415344496867,6
0.3850641773628938,1.5898924521194873,6
0.3867311218536423,1.5569037593511112,6
0.3883980663443907,1.5202753871827324,6
0.39006501083513917,1.480121360606233,6
0.3917319553258876,1.4365693517670723,6
0.39339889981663606,1.3897601793169265,6
0.39506584430738456,1.339847255895203,6
0.396732788798133,1.286995985920326,6
0.39839973328888145,1.2313831160678483,6
0.4000666777796299,1.1731960409992241,6
0.4017336222703784,1.1126320670817629,6
0.40340056676112684,1.0498976370060773,6
0.4050675112518753,0.9852075183617636,6
0.40673445574262374,0.9187839593742828,6
0.40840140023337224,0.8508558151357141,6
0.4100683447241207,0.7816576477784601,6
0.4117352892148691,0.711428804143916,6
0.41340223370561757,0.6404124745869139,6
0.415069178196366,0.568854736631271,6
0.4167361226871145,0.49700358725149485,6
0.41840306717786296,0.4251079676007161,6
0.4200700116686114,0.35341678403458654,6
0.42173695615935985,0.2821779292956643,6
0.42340390065010836,0.21163730772204503,6
0.4250708451408568,0.14203786832815973,6
0.42673778963160525,0.0736186495745842,6
0.4284047341223537,0.0066138395975468,6
0.43007167861310214,-0.05874814439223691,6
0.43173862310385064,-0.1222455539073819,6
0.4334055675945991,-0.1836641806344232,6
0.43507251208534753,-0.2427981980972032,6
0.436739456576096,-0.2994509702107463,6
0.4384064010668445,-0.3534358235340015,6
0.4400733455575929,-0.4045767801731526,6
0.44174029004834137,-0.4527092484425412,6
0.4434072345390898,-0.497680668557028,6
0.44507417902983826,-0.5393511108071085,6
0.44674112352058676,-0.5775938238557672,6
0.4484080680113352,-0.6122957309928887,6
0.45007501250208365,-0.6433578723885567,6
0.4517419569928321,-0.6706957915997378,6
0.4534089014835806,-0.6942398648049282,6
0.45507584597432904,-0.7139355714674617,6
0.4567427904650775,-0.7297437053593959,6
0.45840973495582593,-0.7416405251133424,6
0.46007667944657443,-0.7496178437083503,6
0.4617436239373229,-0.7536830565370306,6
0.4634105684280713,-0.7538591079435878,6
0.46507751291881977,-0.7501843963653165,6
0.4667444574095682,-0.7427126184525387,6
0.4684114019003167,-0.7315125527828276,6
0.47007834639106516,-0.7166677840238668,6
0.4717452908818136,-0.6982763686343783,6
0.47341223537256205,-0.6764504434233528,6
0.47507917986331055,-0.6513157785134326,6
0.476746124354059,-0.6230112764737266,6
0.47841306884480744,-0.5916884195999146,6
0.4800800133355559,-0.5575106675241643,6
0.48174695782630433,-0.5206528075334977,6
0.48341390231705283,-0.481300260161915,6
0.4850808468078013,-0.4396483427982434,6
0.4867477912985497,-0.3959014942172476,6
0.48841473578929817,-0.3502724630960639,6
0.49008168028004667,-0.3029814637199476,6
0.4917486247707951,-0.25425530221102854,6
0.49341556926154356,-0.20432647673007345,6
0.495082513752292,-0.15343225520398646,6
0.4967494582430405,-0.10181373422059128,6
0.49841640273378895,-0.04971488280645437,6
0.5000833472245374,0.0026184251366791022,6
0.5017502917152858,0.05493938591657855,6
0.5034172362060343,0.10700124480635416,6
0.5050841806967827,0.1585582746069733,6
0.5067511251875312,0.20936675015269446,6
0.5084180696782797,0.25918591491180526,6
0.5100850141690282,0.3077789358661047,6
0.5117519586597766,0.3549138428989948,6
0.5134189031505251,0.4003644489830251,6
0.5150858476412735,0.4439112475337366,6
0.516752792132022,0.4853422833866513,6
0.5184197366227704,0.5244539939584062,6
0.5200866811135189,0.5610520172708239,6
0.5217536256042673,0.5949519636474249,6
0.5234205700950159,0.6259801480353846,6
0.5250875145857643,0.6539742800613092,6
0.5267544590765127,0.6787841090961705,6
0.5284214035672612,0.700272021782234,6
0.5300883480580096,0.7183135896625947,6
0.5317552925487581,0.7327980647508443,6
0.5334222370395065,0.7436288210839875,6
0.535089181530255,0.7507237405149196,6
0.5367561260210034,0.7540155412209495,6
0.538423070511752,0.7534520476309762,6
0.5400900150025004,0.7489964007052284,6
0.5417569594932489,0.7406272077369305,6
0.5434239039839973,0.7283386310840284,6
0.5450908484747458,0.7121404154802113,6
0.5467577929654942,0.692057853816939,6
0.5484247374562427,0.6681316915310906,6
0.5500916819469911,0.640417969975248,6
0.5517586264377395,0.6089878093884835,6
0.5534255709284881,0.5739271323240043,6
0.5550925154192365,0.5353363286250568,6
0.556759459909985,0.4933298632712555,6
0.5584264044007334,0.44803582864305436,6
0.5600933488914819,0.3995954429714956,6
0.5617602933822303,0.3481624969528224,6
0.5634272378729788,0.2939027507122227,6
0.5650941823637272,0.23699328349691245,6
0.5667611268544758,0.17762179866544447,6
0.5684280713452242,0.11598588671664661,6
0.5700950158359727,0.05229224926710019,6
0.5717619603267211,-0.013244112959546694,6
0.5734289048174696,-0.0804007449262541,6
0.575095849308218,-0.14894861152449473,6
0.5767627937989664,-0.2186529978135088,6
0.5784297382897149,-0.2892744317032751,6
0.5800966827804633,-0.3605696254390482,6
0.5817636272712119,-0.4322924321709928,6
0.5834305717619603,-0.5041948138329837,6
0.5850975162527088,-0.5760278165099607,6
0.5867644607434572,-0.6475425494435968,6
0.5884314052342057,-0.7184911638117402,6
0.5900983497249541,-0.7886278274180017,6
0.5917652942157026,-0.857709691443939,6
0.593432238706451,-0.9254978454476173,6
0.5950991831971995,-0.9917582568388248,6
0.596766127687948,-1.0562626911223818,6
0.5984330721786965,-1.1187896092769738,6
0.6001000166694449,-1.1791250387271923,6
0.6017669611601933,-1.2370634144706945,6
0.6034339056509418,-1.2924083870402319,6
0.6051008501416902,-1.344973594111237,6
0.6067677946324387,-1.3945833927091136,6
0.6084347391231871,-1.441073549126025,6
0.6101016836139356,-1.4842918838238388,6
0.6117686281046841,-1.5240988687776102,6
0.6134355725954326,-1.56036817490178,6
0.615102517086181,-1.592987167398302,6
0.6167694615769295,-1.621857347071474,6
0.6184364060676779,-1.6468947358676278,6
0.6201033505584264,-1.6680302051179567,6
0.6217702950491748,-1.6852097451890116,6
0.6234372395399232,-1.698394675476667,6
0.6251041840306717,-1.7075617939148773,6
0.6267711285214203,-1.7127034654093547,6
0.6284380730121687,-1.713827648847375,6
0.6301050175029171,-1.7109578625774327,6
0.6317719619936656,-1.7041330884953643,6
0.633438906484414,-1.6934076151159307,6
0.6351058509751625,-1.6788508202497239,6
0.6367727954659109,-1.6605468941436796,6
0.6384397399566594,-1.6385945041785468,6
0.6401066844474079,-1.6131064024473252,6
0.6417736289381564,-1.5842089777642594,6
0.6434405734289048,-1.5520417538732492,6
0.6451075179196533,-1.5167568358370629,6
0.6467744624104017,-1.478518306793171,6
0.6484414069011502,-1.437501577458046,6
0.6501083513918986,-1.3938926909483267,6
0.651775295882647,-1.3478875856635462,6
0.6534422403733955,-1.2996913191408046,6
0.655109184864144,-1.2495172559457302,6
0.6567761293548925,-1.197586222806189,6
0.6584430738456409,-1.144125634324311,6
0.6601100183363894,-1.0893685927187904,6
0.6617769628271378,-1.0335529651517295,6
0.6634439073178863,-0.9769204422829537,6
0.6651108518086347,-0.9197155817686814,6
0.6667777962993832,-0.8621848404809622,6
0.6684447407901316,-0.8045755992688448,6
0.6701116852808802,-0.7471351841115368,6
0.6717786297716286,-0.6901098875282445,6
0.6734455742623771,-0.6337439941081597,6
0.6751125187531255,-0.5782788140080348,6
0.676779463243874,-0.5239517282330577,6
0.6784464077346224,-0.47099524947043886,6
0.6801133522253708,-0.4196361021835698,6
0.6817802967161193,-0.3700943255986947,6
0.6834472412068677,-0.3225824031255151,6
0.6851141856976163,-0.27730442164889535,6
0.6867811301883647,-0.23445526401090977,6
0.6884480746791132,-0.19421983787129804,6
0.6901150191698616,-0.15677234399097695,6
0.6917819636606101,-0.12227558682743367,6
0.6934489081513585,-0.09088033016392016,6
0.695115852642107,-0.06272470031645183,6
0.6967827971328554,-0.037933639274890796,6
0.6984497416236038,-0.016618409937169787,6
0.7001166861143524,0.0011238446098765786,6
0.7017836306051008,0.015210486023048864,6
0.7034505750958493,0.025573708328859412,6
0.7051175195865977,0.03216080694956569,6
0.7067844640773462,0.034934388066949706,6
0.7084514085680946,0.03387251749715925,6
0.7101183530588431,0.028968808488738507,6
0.7117852975495915,0.0202324480970949,6
0.71345224204034,0.007688162031164181,6
0.7151191865310885,-0.008623881889082918,6
0.716786131021837,-0.028648231283255554,6
0.7184530755125854,-0.052314367147430874,6
0.7201200200033339,-0.0795369813170046,6
0.7217869644940823,-0.11021631236025142,6
0.7234539089848308,-0.14423853857662683,6
0.7251208534755792,-0.18147622654838003,6
0.7267877979663276,-0.22178883347478195,6
0.7284547424570762,-0.2650232613058783,6
0.7301216869478246,-0.3110144604882189,6
0.7317886314385731,-0.3595860809391275,6
0.7334555759293215,-0.4105511676796264,6
0.73512252042007,-0.4637128983798181,6
0.7367894649108184,-0.518865359905069,6
0.7384564094015669,-0.5757943607973157,6
0.7401233538923153,-0.6342782764840305,6
0.7417902983830638,-0.6940889238781022,6
0.7434572428738123,-0.754992461915844,6
0.7451241873645608,-0.8167503144780051,6
0.7467911318553092,-0.8791201120502528,6
0.7484580763460577,-0.941856648405576,6
0.7501250208368061,-1.0047128485317773,6
0.7517919653275545,-1.067440743982872,6
0.753458909818303,-1.129792451803802,6
0.7551258543090514,-1.1915211531638539,6
0.7567927987997999,-1.2523820678352082,6
0.7584597432905484,-1.312133420669593,6
0.7601266877812969,-1.3705373962574299,6
0.7617936322720453,-1.4273610780006933,6
0.7634605767627938,-1.482377367892006,6
0.7651275212535422,-1.535365883368906,6
0.7667944657442907,-1.586113827702539,6
0.7684614102350391,-1.6344168304845508,6
0.7701283547257876,-1.6800797548940634,6
0.771795299216536,-1.7229174685576694,6
0.7734622437072846,-1.762755574959175,6
0.775129188198033,-1.7994311025114809,6
0.7767961326887814,-1.8327931485702598,6
0.7784630771795299,-1.862703475846804,6
0.7801300216702783,-1.889037058865477,6
0.7817969661610268,-1.9116825783083091,6
0.7834639106517752,-1.9305428612950863,6
0.7851308551425237,-1.9455352658606664,6
0.7867977996332721,-1.956592008111551,6
0.7884647441240207,-1.9636604307700811,6
0.7901316886147691,-1.9667032120459422,6
0.7917986331055176,-1.9656985140103085,6
0.793465577596266,-1.9606400698867212,6
0.7951325220870145,-1.9515372099139983,6
0.7967994665777629,-1.9384148256789302,6
0.7984664110685114,-1.921313273059452,6
0.8001333555592598,-1.9002882141613266,6
0.8018003000500082,-1.8754103988722064,6
0.8034672445407568,-1.8467653868953233,6
0.8051341890315052,-1.8144532113600556,6
0.8068011335222537,-1.7785879853371913,6
0.8084680780130021,-1.7392974528121956,6
0.8101350225037506,-1.6967224858890013,6
0.811801966994499,-1.6510165302091004,6
0.8134689114852475,-1.6023450007752245,6
